ALV-5000/E-WIN Data
Date :	"13.03.17"
Time :	"11:30:46"
Samplename : 	""
Temperature [K] :	     298.16000
Viscosity [cp]  :	       0.89454
Refractive Index:	       1.33000
Wavelength [nm] :	     532.00000
Angle [°]       :	      80.00000
Duration [s]    :	        30
Runs            :	         1
Mode            :	"SINGLE AUTO CH0 "
MeanCR0 [kHz]   :	      96.61020
MeanCR1 [kHz]   :	       0.00000

"Correlation"
  2.00000E-004	  6.09417E-001
  4.00000E-004	  5.97599E-001
  6.00000E-004	  5.97509E-001
  8.00000E-004	  5.93443E-001
  1.00000E-003	  5.87399E-001
  1.20000E-003	  5.92544E-001
  1.40000E-003	  5.86715E-001
  1.60000E-003	  5.96249E-001
  1.80000E-003	  5.97922E-001
  2.00000E-003	  5.89755E-001
  2.20000E-003	  5.95944E-001
  2.40000E-003	  5.91033E-001
  2.60000E-003	  5.98894E-001
  2.80000E-003	  5.90223E-001
  3.00000E-003	  5.90259E-001
  3.20000E-003	  5.88514E-001
  3.60000E-003	  5.85204E-001
  4.00000E-003	  5.93641E-001
  4.40000E-003	  5.90483E-001
  4.80000E-003	  5.83000E-001
  5.20000E-003	  5.82182E-001
  5.60000E-003	  5.85734E-001
  6.00000E-003	  5.88838E-001
  6.40000E-003	  5.86038E-001
  7.20000E-003	  5.80749E-001
  8.00000E-003	  5.85512E-001
  8.80000E-003	  5.80066E-001
  9.60000E-003	  5.82293E-001
  1.04000E-002	  5.82207E-001
  1.12000E-002	  5.74967E-001
  1.20000E-002	  5.72709E-001
  1.28000E-002	  5.78399E-001
  1.44000E-002	  5.77912E-001
  1.60000E-002	  5.76091E-001
  1.76000E-002	  5.75794E-001
  1.92000E-002	  5.70717E-001
  2.08000E-002	  5.68194E-001
  2.24000E-002	  5.70166E-001
  2.40000E-002	  5.68405E-001
  2.56000E-002	  5.66932E-001
  2.88000E-002	  5.64841E-001
  3.20000E-002	  5.63617E-001
  3.52000E-002	  5.58885E-001
  3.84000E-002	  5.57666E-001
  4.16000E-002	  5.52560E-001
  4.48000E-002	  5.52166E-001
  4.80000E-002	  5.47463E-001
  5.12000E-002	  5.45520E-001
  5.76000E-002	  5.40716E-001
  6.40000E-002	  5.37500E-001
  7.04000E-002	  5.30963E-001
  7.68000E-002	  5.26452E-001
  8.32000E-002	  5.20816E-001
  8.96000E-002	  5.15585E-001
  9.60000E-002	  5.12066E-001
  1.02400E-001	  5.07136E-001
  1.15200E-001	  4.98080E-001
  1.28000E-001	  4.86691E-001
  1.40800E-001	  4.77973E-001
  1.53600E-001	  4.69215E-001
  1.66400E-001	  4.60429E-001
  1.79200E-001	  4.53351E-001
  1.92000E-001	  4.45837E-001
  2.04800E-001	  4.36322E-001
  2.30400E-001	  4.18671E-001
  2.56000E-001	  4.03546E-001
  2.81600E-001	  3.89557E-001
  3.07200E-001	  3.74571E-001
  3.32800E-001	  3.61096E-001
  3.58400E-001	  3.48613E-001
  3.84000E-001	  3.35052E-001
  4.09600E-001	  3.22835E-001
  4.60800E-001	  2.99918E-001
  5.12000E-001	  2.77855E-001
  5.63200E-001	  2.58711E-001
  6.14400E-001	  2.39941E-001
  6.65600E-001	  2.22174E-001
  7.16800E-001	  2.06582E-001
  7.68000E-001	  1.91147E-001
  8.19200E-001	  1.78018E-001
  9.21600E-001	  1.54038E-001
  1.02400E+000	  1.33437E-001
  1.12640E+000	  1.15532E-001
  1.22880E+000	  1.00443E-001
  1.33120E+000	  8.71205E-002
  1.43360E+000	  7.69173E-002
  1.53600E+000	  6.71316E-002
  1.63840E+000	  5.93512E-002
  1.84320E+000	  4.54588E-002
  2.04800E+000	  3.47186E-002
  2.25280E+000	  2.76105E-002
  2.45760E+000	  2.17550E-002
  2.66240E+000	  1.68583E-002
  2.86720E+000	  1.20251E-002
  3.07200E+000	  8.51707E-003
  3.22560E+000	  7.34205E-003
  3.63520E+000	  4.28391E-003
  4.04480E+000	  3.48683E-003
  4.45440E+000	  2.64727E-003
  4.86400E+000	  2.66026E-003
  5.27360E+000	  3.63339E-003
  5.68320E+000	  3.76693E-003
  6.09280E+000	  4.51166E-003
  6.50240E+000	  5.25902E-003
  7.32160E+000	  4.89191E-003
  8.14080E+000	  4.91590E-003
  8.96000E+000	  4.14450E-003
  9.77920E+000	  1.92355E-003
  1.05984E+001	  2.16186E-004
  1.14176E+001	  1.80214E-003
  1.22368E+001	  7.48265E-005
  1.30560E+001	 -2.28834E-003
  1.46944E+001	 -6.51756E-004
  1.63328E+001	 -9.62408E-004
  1.79712E+001	 -4.68172E-004
  1.96096E+001	  1.83625E-003
  2.12480E+001	  1.50740E-003
  2.28864E+001	  2.94164E-003
  2.45248E+001	  4.11189E-003
  2.61632E+001	  3.31315E-003
  2.94400E+001	  9.02380E-004
  3.27168E+001	  3.05567E-003
  3.59936E+001	  1.35231E-003
  3.92704E+001	 -1.14011E-003
  4.25472E+001	 -1.03958E-003
  4.58240E+001	 -1.69408E-003
  4.91008E+001	 -2.69134E-004
  5.23776E+001	  3.41942E-005
  5.89312E+001	 -4.72649E-004
  6.54848E+001	  3.69217E-004
  7.20384E+001	 -2.09444E-003
  7.85920E+001	 -1.92150E-003
  8.51456E+001	  1.20170E-003
  9.16992E+001	  6.16169E-003
  9.82528E+001	 -4.85029E-004
  1.04806E+002	 -1.09243E-003
  1.17914E+002	 -7.97251E-004
  1.31021E+002	 -8.90277E-005
  1.44128E+002	  1.70760E-003
  1.57235E+002	  1.81982E-003
  1.70342E+002	  4.45755E-004
  1.83450E+002	  8.49674E-004
  1.96557E+002	  1.33414E-003
  2.09664E+002	  5.73347E-005
  2.35878E+002	 -7.22746E-004
  2.62093E+002	 -1.70572E-003
  2.88307E+002	 -2.37706E-003
  3.14522E+002	 -1.94987E-004
  3.40736E+002	  1.02762E-003
  3.66950E+002	 -1.24384E-003
  3.93165E+002	 -5.75837E-004
  4.19379E+002	 -1.35622E-003
  4.71808E+002	  1.42357E-004
  5.24237E+002	  7.61309E-004
  5.76666E+002	 -6.78034E-004
  6.29094E+002	  3.20849E-004
  6.81523E+002	 -3.35784E-004
  7.33952E+002	 -1.44455E-003
  7.86381E+002	  1.06670E-004
  8.38810E+002	  1.55536E-004
  9.43667E+002	  4.52137E-004
  1.04852E+003	 -4.53654E-004
  1.15338E+003	 -4.35789E-004
  1.25824E+003	 -2.02589E-005
  1.36310E+003	 -6.89771E-004
  1.46796E+003	  9.68630E-005
  1.57281E+003	  6.38250E-005
  1.67767E+003	  6.77712E-004
  1.88739E+003	  3.22634E-004
  2.09710E+003	 -1.86165E-004
  2.30682E+003	 -6.82129E-004
  2.51653E+003	 -5.57380E-004
  2.72625E+003	  9.25727E-004
  2.93596E+003	  1.07642E-005
  3.14568E+003	  3.11042E-004
  3.35539E+003	  5.38434E-005
  3.77482E+003	 -2.51387E-004
  4.19425E+003	 -1.63104E-004
  4.61368E+003	  1.88615E-004
  5.03311E+003	 -1.52374E-004
  5.45254E+003	 -3.64217E-004
  5.87197E+003	  3.65908E-004
  6.29140E+003	 -2.67763E-004

"Count Rate"
       0.11719	      77.92013
       0.23438	     107.95113
       0.35156	      92.98685
       0.46875	      92.20150
       0.58594	     103.74269
       0.70313	     105.59509
       0.82031	     100.31960
       0.93750	      85.03947
       1.05469	      90.04179
       1.17188	     106.34629
       1.28906	      91.20274
       1.40625	      90.32349
       1.52344	     122.41177
       1.64063	     103.66586
       1.75781	      80.66031
       1.87500	      85.46629
       1.99219	     106.09873
       2.10938	     108.46331
       2.22656	      92.21004
       2.34375	      88.01867
       2.46094	      98.98792
       2.57813	     101.59152
       2.69531	      80.91640
       2.81250	      94.07097
       2.92969	      89.10279
       3.04688	      84.38217
       3.16406	      86.17481
       3.28125	      98.70622
       3.39844	      87.98453
       3.51563	      98.49281
       3.63281	      79.52496
       3.75000	     116.03509
       3.86719	     104.79266
       3.98438	      85.16752
       4.10156	      99.07329
       4.21875	      90.59666
       4.33594	     123.64101
       4.45313	      93.32830
       4.57031	     114.97658
       4.68750	      95.90629
       4.80469	     117.70822
       4.92188	      94.02828
       5.03906	      99.75620
       5.15625	     100.75496
       5.27344	     100.59277
       5.39063	     101.13909
       5.50781	      91.25396
       5.62500	     114.25098
       5.74219	      82.78587
       5.85938	      90.75885
       5.97656	      95.58191
       6.09375	     102.19761
       6.21094	     101.19884
       6.32813	      99.04768
       6.44531	     113.91806
       6.56250	     110.47790
       6.67969	      96.46115
       6.79688	      82.47855
       6.91406	      91.17713
       7.03125	      97.14407
       7.14844	     104.56219
       7.26563	      92.92709
       7.38281	      91.42469
       7.50000	      99.82449
       7.61719	      96.71725
       7.73438	      94.88192
       7.85156	      97.65625
       7.96875	      86.56748
       8.08594	      87.11382
       8.20313	     126.88483
       8.32031	      98.58672
       8.43750	     104.03293
       8.55469	      81.11273
       8.67188	      83.07610
       8.78906	      92.55149
       8.90625	      82.41880
       9.02344	      86.20042
       9.14063	     120.85815
       9.25781	      94.07951
       9.37500	     104.41707
       9.49219	      86.07237
       9.60938	      90.59666
       9.72656	      89.11133
       9.84375	     104.72437
       9.96094	     111.37422
      10.07813	      96.05994
      10.19531	      98.00624
      10.31250	      82.61514
      10.42969	      84.87728
      10.54688	      92.11613
      10.66406	      92.67100
      10.78125	      90.11862
      10.89844	      91.37347
      11.01563	     105.65484
      11.13281	      99.14158
      11.25000	      97.10139
      11.36719	      90.84422
      11.48438	      97.43430
      11.60156	      93.95145
      11.71875	      99.03915
      11.83594	     100.07204
      11.95313	     100.58423
      12.07031	      97.82697
      12.18750	      88.06135
      12.30469	     103.59757
      12.42188	     101.06226
      12.53906	     105.88532
      12.65625	     108.89013
      12.77344	      91.78322
      12.89063	      91.54420
      13.00781	      86.80650
      13.12500	      95.52216
      13.24219	      86.52480
      13.35938	      99.50011
      13.47656	      91.56127
      13.59375	      84.51875
      13.71094	     101.61713
      13.82813	     109.02671
      13.94531	      95.49654
      14.06250	      88.71011
      14.17969	     103.75977
      14.29688	      96.31603
      14.41406	      94.19901
      14.53125	      87.06259
      14.64844	      83.42609
      14.76563	      90.77592
      14.88281	     100.25985
      15.00000	     111.80104
      15.11719	      99.99522
      15.23438	      87.79672
      15.35156	      99.16719
      15.46875	      99.86717
      15.58594	      96.76846
      15.70313	     103.04271
      15.82031	     112.99613
      15.93750	      93.86610
      16.05469	      88.04428
      16.17188	      97.22943
      16.28906	     101.81347
      16.40625	     104.45975
      16.52344	      89.66619
      16.64063	     102.36833
      16.75781	      89.57229
      16.87500	      92.64539
      16.99219	      90.75031
      17.10938	     108.98403
      17.22656	     105.23656
      17.34375	     106.14996
      17.46094	      93.25147
      17.57813	      98.10014
      17.69531	      92.26125
      17.81250	     102.81223
      17.92969	      96.52091
      18.04688	      92.67953
      18.16406	      95.60751
      18.28125	     101.66835
      18.39844	      93.01246
      18.51563	     104.69877
      18.63281	     101.22446
      18.75000	      99.03915
      18.86719	      89.80277
      18.98438	      97.84405
      19.10156	     106.43166
      19.21875	      96.53798
      19.33594	     104.89510
      19.45313	      94.25877
      19.57031	      81.08713
      19.68750	     108.36088
      19.80469	      99.57693
      19.92188	      92.70515
      20.03906	     101.50616
      20.15625	     115.22413
      20.27344	     102.35126
      20.39063	     100.79764
      20.50781	      88.41135
      20.62500	      91.36493
      20.74219	     103.11100
      20.85938	      93.07221
      20.97656	      94.77949
      21.09375	      86.20042
      21.21094	     111.04130
      21.32813	     109.42793
      21.44531	      85.67117
      21.56250	     106.79018
      21.67969	     102.12078
      21.79688	     118.92039
      21.91406	      97.33186
      22.03125	      93.82341
      22.14844	      91.22835
      22.26563	      89.19669
      22.38281	      88.64182
      22.50000	      95.54776
      22.61719	      92.26125
      22.73438	      94.35267
      22.85156	     102.25736
      22.96875	      93.95999
      23.08594	      93.08075
      23.20313	      91.51859
      23.32031	      84.46754
      23.43750	     102.83784
      23.55469	      98.43306
      23.67188	      98.08307
      23.78906	      94.15633
      23.90625	     102.65003
      24.02344	      83.09318
      24.14063	      89.23937
      24.25781	      99.38914
      24.37500	      99.03915
      24.49219	      95.49654
      24.60938	     105.30485
      24.72656	     107.44748
      24.84375	      89.12840
      24.96094	     102.38541
      25.07813	      87.55770
      25.19531	      90.25520
      25.31250	      85.01386
      25.42969	      93.77219
      25.54688	      86.45651
      25.66406	     100.95129
      25.78125	      97.28065
      25.89844	      99.46597
      26.01563	      95.70995
      26.13281	      95.06973
      26.25000	     111.13520
      26.36719	     107.37919
      26.48438	      80.72006
      26.60156	     101.55737
      26.71875	      94.35267
      26.83594	     105.62070
      26.95313	      80.10544
      27.07031	      88.69305
      27.18750	      85.52605
      27.30469	      98.95378
      27.42188	      97.63064
      27.53906	      95.87215
      27.65625	      99.01353
      27.77344	     101.31836
      27.89063	      92.57710
      28.00781	      96.92212
      28.12500	      95.59898
      28.24219	      91.15152
      28.35938	     110.27303
      28.47656	      96.11116
      28.59375	     108.28405
      28.71094	      94.25023
      28.82813	      89.11987
      28.94531	      93.89170
      29.06250	      86.89187
      29.17969	      88.44549
      29.29688	      90.28934
      29.41406	      95.67580
      29.53125	      91.63810
      29.64844	      95.07826
      29.76563	      99.94400
      29.88281	      89.80277
