ALV-5000/E-WIN Data
Date :	"13.03.17"
Time :	"12:00:34"
Samplename : 	""
Temperature [K] :	     298.16000
Viscosity [cp]  :	       0.89454
Refractive Index:	       1.33000
Wavelength [nm] :	     532.00000
Angle [°]       :	      80.00000
Duration [s]    :	        30
Runs            :	         1
Mode            :	"SINGLE AUTO CH0 "
MeanCR0 [kHz]   :	     143.22610
MeanCR1 [kHz]   :	       0.00000

"Correlation"
  2.00000E-004	  5.61037E-001
  4.00000E-004	  5.64466E-001
  6.00000E-004	  5.50776E-001
  8.00000E-004	  5.49191E-001
  1.00000E-003	  5.48502E-001
  1.20000E-003	  5.52578E-001
  1.40000E-003	  5.53981E-001
  1.60000E-003	  5.48551E-001
  1.80000E-003	  5.46094E-001
  2.00000E-003	  5.47447E-001
  2.20000E-003	  5.45347E-001
  2.40000E-003	  5.51739E-001
  2.60000E-003	  5.46775E-001
  2.80000E-003	  5.50370E-001
  3.00000E-003	  5.49622E-001
  3.20000E-003	  5.50851E-001
  3.60000E-003	  5.48165E-001
  4.00000E-003	  5.46974E-001
  4.40000E-003	  5.49942E-001
  4.80000E-003	  5.50842E-001
  5.20000E-003	  5.46948E-001
  5.60000E-003	  5.44196E-001
  6.00000E-003	  5.47293E-001
  6.40000E-003	  5.48116E-001
  7.20000E-003	  5.46867E-001
  8.00000E-003	  5.46760E-001
  8.80000E-003	  5.46117E-001
  9.60000E-003	  5.44636E-001
  1.04000E-002	  5.46881E-001
  1.12000E-002	  5.45601E-001
  1.20000E-002	  5.42898E-001
  1.28000E-002	  5.43684E-001
  1.44000E-002	  5.47464E-001
  1.60000E-002	  5.42909E-001
  1.76000E-002	  5.46869E-001
  1.92000E-002	  5.43877E-001
  2.08000E-002	  5.42491E-001
  2.24000E-002	  5.43188E-001
  2.40000E-002	  5.44902E-001
  2.56000E-002	  5.41925E-001
  2.88000E-002	  5.40869E-001
  3.20000E-002	  5.38918E-001
  3.52000E-002	  5.40237E-001
  3.84000E-002	  5.38532E-001
  4.16000E-002	  5.39316E-001
  4.48000E-002	  5.37971E-001
  4.80000E-002	  5.35901E-001
  5.12000E-002	  5.35923E-001
  5.76000E-002	  5.34455E-001
  6.40000E-002	  5.32474E-001
  7.04000E-002	  5.31255E-001
  7.68000E-002	  5.29506E-001
  8.32000E-002	  5.28414E-001
  8.96000E-002	  5.25759E-001
  9.60000E-002	  5.24813E-001
  1.02400E-001	  5.24226E-001
  1.15200E-001	  5.21462E-001
  1.28000E-001	  5.16778E-001
  1.40800E-001	  5.15126E-001
  1.53600E-001	  5.12769E-001
  1.66400E-001	  5.09514E-001
  1.79200E-001	  5.07348E-001
  1.92000E-001	  5.04853E-001
  2.04800E-001	  5.03019E-001
  2.30400E-001	  4.97113E-001
  2.56000E-001	  4.92625E-001
  2.81600E-001	  4.88138E-001
  3.07200E-001	  4.83899E-001
  3.32800E-001	  4.78843E-001
  3.58400E-001	  4.75042E-001
  3.84000E-001	  4.69867E-001
  4.09600E-001	  4.66396E-001
  4.60800E-001	  4.58626E-001
  5.12000E-001	  4.50824E-001
  5.63200E-001	  4.43063E-001
  6.14400E-001	  4.35726E-001
  6.65600E-001	  4.28759E-001
  7.16800E-001	  4.22137E-001
  7.68000E-001	  4.15026E-001
  8.19200E-001	  4.08728E-001
  9.21600E-001	  3.96123E-001
  1.02400E+000	  3.84584E-001
  1.12640E+000	  3.73818E-001
  1.22880E+000	  3.62663E-001
  1.33120E+000	  3.52164E-001
  1.43360E+000	  3.42063E-001
  1.53600E+000	  3.32517E-001
  1.63840E+000	  3.22868E-001
  1.84320E+000	  3.05400E-001
  2.04800E+000	  2.89645E-001
  2.25280E+000	  2.75333E-001
  2.45760E+000	  2.61056E-001
  2.66240E+000	  2.47790E-001
  2.86720E+000	  2.34758E-001
  3.07200E+000	  2.22772E-001
  3.22560E+000	  2.14432E-001
  3.63520E+000	  1.94772E-001
  4.04480E+000	  1.78072E-001
  4.45440E+000	  1.63276E-001
  4.86400E+000	  1.50011E-001
  5.27360E+000	  1.37682E-001
  5.68320E+000	  1.26998E-001
  6.09280E+000	  1.17489E-001
  6.50240E+000	  1.09211E-001
  7.32160E+000	  9.45340E-002
  8.14080E+000	  8.24746E-002
  8.96000E+000	  7.15675E-002
  9.77920E+000	  6.25464E-002
  1.05984E+001	  5.53892E-002
  1.14176E+001	  4.91484E-002
  1.22368E+001	  4.29092E-002
  1.30560E+001	  3.63640E-002
  1.46944E+001	  2.51812E-002
  1.63328E+001	  1.80474E-002
  1.79712E+001	  1.61488E-002
  1.96096E+001	  1.47230E-002
  2.12480E+001	  1.26209E-002
  2.28864E+001	  1.09452E-002
  2.45248E+001	  1.16081E-002
  2.61632E+001	  1.21661E-002
  2.94400E+001	  9.02131E-003
  3.27168E+001	  7.45668E-003
  3.59936E+001	  1.10725E-002
  3.92704E+001	  1.08623E-002
  4.25472E+001	  6.76116E-003
  4.58240E+001	  3.64941E-003
  4.91008E+001	  2.00047E-004
  5.23776E+001	  1.37495E-003
  5.89312E+001	 -3.44175E-003
  6.54848E+001	 -8.61584E-003
  7.20384E+001	  8.46594E-004
  7.85920E+001	  8.59178E-003
  8.51456E+001	 -1.75158E-003
  9.16992E+001	 -8.04906E-003
  9.82528E+001	 -1.07458E-002
  1.04806E+002	 -6.88893E-003
  1.17914E+002	 -6.94947E-004
  1.31021E+002	  4.66303E-003
  1.44128E+002	 -5.24097E-003
  1.57235E+002	 -3.79573E-003
  1.70342E+002	 -1.65548E-003
  1.83450E+002	 -1.09880E-002
  1.96557E+002	 -1.14014E-002
  2.09664E+002	 -9.64596E-004
  2.35878E+002	 -2.75918E-003
  2.62093E+002	 -7.11179E-004
  2.88307E+002	 -3.61144E-003
  3.14522E+002	 -1.90797E-003
  3.40736E+002	  5.65568E-004
  3.66950E+002	 -4.52188E-003
  3.93165E+002	  2.97629E-003
  4.19379E+002	  1.44838E-003
  4.71808E+002	  8.58318E-004
  5.24237E+002	  2.07374E-003
  5.76666E+002	 -5.15936E-003
  6.29094E+002	 -6.59335E-003
  6.81523E+002	 -6.41676E-003
  7.33952E+002	 -3.41479E-003
  7.86381E+002	  2.63721E-003
  8.38810E+002	  5.11978E-003
  9.43667E+002	 -1.61845E-003
  1.04852E+003	 -6.66263E-004
  1.15338E+003	  2.55975E-003
  1.25824E+003	  7.63061E-003
  1.36310E+003	 -5.62564E-004
  1.46796E+003	 -1.90363E-003
  1.57281E+003	 -1.84738E-003
  1.67767E+003	  1.44024E-003
  1.88739E+003	 -1.55462E-003
  2.09710E+003	  1.04870E-003
  2.30682E+003	  3.25453E-003
  2.51653E+003	 -3.02552E-005
  2.72625E+003	  2.58068E-003
  2.93596E+003	 -9.34309E-004
  3.14568E+003	  2.75419E-003
  3.35539E+003	  3.89669E-004
  3.77482E+003	  1.10315E-003
  4.19425E+003	 -5.63468E-004
  4.61368E+003	  4.47056E-004
  5.03311E+003	  9.88084E-004
  5.45254E+003	 -2.64948E-004
  5.87197E+003	  1.70190E-003
  6.29140E+003	  2.77154E-004

"Count Rate"
       0.11719	     123.71783
       0.23438	     127.98602
       0.35156	     122.98370
       0.46875	     126.19338
       0.58594	     148.77213
       0.70313	     127.54214
       0.82031	     112.38152
       0.93750	     128.95917
       1.05469	     132.53592
       1.17188	     146.27950
       1.28906	     150.03551
       1.40625	     185.81149
       1.52344	     173.68983
       1.64063	     120.96912
       1.75781	     121.63496
       1.87500	     118.63869
       1.99219	     113.79002
       2.10938	     117.98992
       2.22656	     132.78348
       2.34375	     158.58043
       2.46094	     142.01984
       2.57813	     124.69952
       2.69531	     130.41035
       2.81250	     169.78871
       2.92969	     115.52290
       3.04688	     155.82318
       3.16406	     145.98073
       3.28125	     135.62608
       3.39844	     130.36768
       3.51563	     124.37514
       3.63281	     130.32500
       3.75000	     119.02282
       3.86719	     113.13271
       3.98438	     166.21196
       4.10156	     216.01323
       4.21875	     121.00327
       4.33594	     109.77792
       4.45313	     112.17664
       4.57031	     129.21527
       4.68750	     117.19604
       4.80469	     124.34953
       4.92188	     136.53949
       5.03906	     128.72870
       5.15625	     185.11151
       5.27344	     142.86494
       5.39063	     179.22141
       5.50781	     172.91302
       5.62500	     121.68617
       5.74219	     113.41441
       5.85938	     156.47194
       5.97656	     132.37373
       6.09375	     140.84183
       6.21094	     131.22131
       6.32813	     159.10968
       6.44531	     150.15501
       6.56250	     134.84927
       6.67969	     179.52019
       6.79688	     146.89412
       6.91406	     101.32690
       7.03125	     116.69239
       7.14844	     141.36255
       7.26563	     135.60902
       7.38281	     174.03983
       7.50000	     119.30452
       7.61719	     117.62286
       7.73438	     111.56202
       7.85156	     121.39594
       7.96875	     169.22530
       8.08594	     143.66736
       8.20313	     158.46945
       8.32031	     150.24039
       8.43750	     157.64143
       8.55469	     107.51577
       8.67188	      90.87836
       8.78906	     124.90439
       8.90625	     207.80977
       9.02344	     101.41226
       9.14063	     145.31490
       9.25781	     171.66670
       9.37500	     127.27750
       9.49219	     165.14491
       9.60938	      89.44424
       9.72656	     144.25638
       9.84375	     152.19522
       9.96094	     138.57968
      10.07813	     131.24692
      10.19531	     128.22505
      10.31250	     135.13951
      10.42969	     119.96182
      10.54688	     123.61539
      10.66406	     118.14357
      10.78125	     129.31770
      10.89844	     127.93481
      11.01563	     138.12726
      11.13281	     128.31041
      11.25000	     235.40790
      11.36719	     121.41301
      11.48438	     134.81514
      11.60156	     109.85474
      11.71875	     138.22969
      11.83594	     150.22331
      11.95313	     168.81555
      12.07031	     178.96532
      12.18750	     134.60173
      12.30469	     113.38027
      12.42188	     134.14929
      12.53906	     187.06635
      12.65625	     137.31630
      12.77344	     101.86469
      12.89063	     120.79839
      13.00781	     249.22830
      13.12500	     109.06940
      13.24219	     132.08350
      13.35938	     226.13739
      13.47656	     145.40878
      13.59375	     136.71021
      13.71094	     110.62302
      13.82813	     175.17517
      13.94531	     104.24634
      14.06250	     106.14996
      14.17969	     165.61441
      14.29688	     174.01422
      14.41406	     154.55980
      14.53125	     143.53078
      14.64844	     143.52225
      14.76563	     137.79433
      14.88281	     125.39950
      15.00000	     221.75822
      15.11719	     121.30203
      15.23438	     176.27635
      15.35156	     131.89569
      15.46875	     179.46043
      15.58594	     146.14291
      15.70313	     167.62047
      15.82031	      99.36353
      15.93750	     127.34579
      16.05469	     113.11565
      16.17188	     141.74667
      16.28906	      97.08431
      16.40625	     135.62608
      16.52344	     128.60918
      16.64063	     151.62328
      16.75781	     144.54662
      16.87500	     192.06866
      16.99219	     114.39610
      17.10938	     107.51577
      17.22656	     209.44875
      17.34375	     141.92595
      17.46094	     151.47816
      17.57813	     132.83469
      17.69531	     166.40829
      17.81250	     139.20284
      17.92969	     161.92670
      18.04688	     166.45097
      18.16406	     183.88228
      18.28125	     167.13390
      18.39844	      97.86966
      18.51563	     144.17955
      18.63281	     118.51917
      18.75000	     126.62020
      18.86719	     106.59384
      18.98438	     135.81389
      19.10156	     147.96117
      19.21875	     144.97343
      19.33594	     162.84009
      19.45313	     143.39420
      19.57031	     152.63057
      19.68750	     137.29068
      19.80469	     150.89769
      19.92188	     155.91708
      20.03906	     146.21974
      20.15625	     132.33958
      20.27344	     152.45131
      20.39063	     164.35103
      20.50781	     157.12924
      20.62500	     173.22887
      20.74219	     117.89602
      20.85938	     160.97916
      20.97656	     112.49249
      21.09375	     161.05598
      21.21094	     137.12849
      21.32813	     138.21262
      21.44531	     217.93391
      21.56250	     152.47691
      21.67969	     216.55956
      21.79688	     150.57330
      21.91406	     144.17101
      22.03125	     116.63264
      22.14844	     138.00774
      22.26563	     120.61913
      22.38281	     173.16911
      22.50000	     191.47966
      22.61719	     174.97029
      22.73438	     116.29118
      22.85156	     179.22995
      22.96875	     167.56924
      23.08594	     136.94923
      23.20313	     129.14697
      23.32031	     154.13298
      23.43750	     136.46266
      23.55469	     118.04114
      23.67188	     141.33693
      23.78906	     189.45654
      23.90625	     131.68228
      24.02344	     134.17491
      24.14063	     174.82516
      24.25781	     151.46962
      24.37500	     164.80345
      24.49219	     138.76749
      24.60938	     126.34704
      24.72656	     148.25995
      24.84375	     149.02821
      24.96094	     218.80463
      25.07813	     108.94135
      25.19531	     134.24319
      25.31250	     154.41467
      25.42969	     138.51993
      25.54688	     157.80362
      25.66406	     142.57471
      25.78125	     127.76408
      25.89844	     115.21559
      26.01563	     149.36967
      26.13281	     169.71188
      26.25000	     128.09700
      26.36719	     133.02249
      26.48438	     191.43698
      26.60156	     166.39977
      26.71875	     136.01022
      26.83594	     107.00359
      26.95313	     160.29625
      27.07031	     144.36736
      27.18750	     139.33089
      27.30469	     106.38043
      27.42188	     117.47774
      27.53906	     194.49301
      27.65625	     113.20100
      27.77344	     218.24123
      27.89063	     133.26151
      28.00781	     133.21883
      28.12500	     178.47021
      28.24219	     139.22844
      28.35938	     114.18269
      28.47656	     126.03120
      28.59375	     148.96846
      28.71094	     156.78780
      28.82813	     168.22655
      28.94531	     158.66580
      29.06250	     135.60902
      29.17969	     114.25098
      29.29688	     128.57504
      29.41406	     185.82004
      29.53125	     166.02415
      29.64844	     137.87115
      29.76563	     159.18651
      29.88281	     136.45412
